##TITLE=Smart Balance Original Spread
##JCAMP-DX=5.01  $$ Nicolet v. 1
##DATATYPE=INFRARED SPECTRUM
##ORIGIN=Lab
##OWNER= Public Domain
##LONGDATE=2016/11/22
##TIME=10:16:17
##DATA PROCESSING=
Ratio against background
Truncated
ElementMultiply or ElementDivide
##XUNITS=1/CM
##YUNITS=TRANSMITTANCE
##FIRSTX=399.212341
##LASTX=3999.837646
##FIRSTY=0.944539
##MAXX=3999.837646
##MINX=399.212341
##MAXY=1.059585
##MINY=0.523075
##XFACTOR=1.000000
##YFACTOR=1.000000E-008
##NPOINTS=1868
##DELTAX=1.928562
##XYDATA=(X++(Y..Y))
399.212 94453928 95454624 96059160 95862936 95035064 94605656 95366856
412.712 95621176 95360264 94521832 94596464 95191832 94720832 94533832
426.212 94735512 94787408 94805016 95033744 95039456 94945888 94796376
439.712 94510456 94340776 94467792 94959776 95390864 95342032 95025120
453.212 94754464 94777112 94436944 94453968 94831512 95085296 94914832
466.712 94811688 94954464 95179064 95638544 95908096 95829328 95772208
480.212 96035464 96176120 96329728 96343544 96467560 96587504 96683792
493.712 96773272 96829072 96741520 96930776 97202424 97081496 96908224
507.212 97012656 97092800 96997872 97169448 97360456 97268696 97148824
520.712 97102408 97198128 96999824 97097136 97311496 97408152 97301944
534.212 97085528 96996400 97059872 97107272 97099072 97022488 97047232
547.712 96867264 96916856 96997296 96861176 96668232 96726264 96866032
561.212 96755968 96586952 96358360 96121144 96062744 96001080 95739944
574.712 95520984 95281360 95163592 95204560 95082800 94986200 95089632
588.212 95089952 95042576 95183648 95356136 95386168 95369424 95347064
601.712 95417640 95561256 95677152 95751936 95879864 95976040 95944720
615.213 95899216 95990808 96148272 96234384 96291440 96292704 96344488
628.713 96373544 96418064 96400784 96428544 96407104 96200296 96000720
642.213 95993368 95939112 95912128 95666200 95441288 95361784 95261800
655.713 95229032 95176912 95058128 94797736 94519848 94119304 92797856
669.213 92738392 93459248 93264872 92849256 92404688 92037104 91761304
682.713 91474960 91021560 90753024 90443616 90078024 89751736 89598432
696.213 89441944 89231408 88875024 88571392 88216048 87808832 87299064
709.713 86663088 85965496 85222888 84286200 83120144 81958840 81271032
723.214 81503872 82518096 83846040 85188088 86338128 87390640 88326536
736.714 89230888 90130528 90856888 91509992 92176392 92740696 93229664
750.214 93655576 94011280 94261968 94451264 94588376 94702368 94842080
763.714 94972976 95135536 95320240 95464456 95629024 95807560 96024664
777.214 96283984 96449296 96511216 96608664 96713200 96745592 96802400
790.714 96870056 96910184 96890640 96885272 96932560 96953312 96965664
804.214 97001312 96967776 96849640 96835536 96780336 96745312 96699000
817.714 96609272 96562808 96537592 96494608 96432280 96319792 96221376
831.214 96152584 96065616 95907032 95800136 95681352 95503056 95407136
844.715 95287744 95179656 95093304 95037376 95013520 95019520 95023960
858.215 95009680 94980352 94925160 94870168 94776000 94700472 94729984
871.715 94802776 94791256 94764656 94811696 94881272 94914160 94941472
885.215 94926656 94927856 94926008 94874864 94841040 94873040 94924776
898.715 94961552 94923168 94793664 94744552 94753176 94753072 94741656
912.215 94770720 94761640 94714512 94730152 94831736 94894904 94973128
925.715 95007152 95001288 94990480 94917992 94819360 94714656 94558576
939.215 94409504 94289624 94152752 93994960 93843520 93705648 93584576
952.716 93456016 93327368 93176192 92994472 92812832 92708976 92644592
966.216 92604496 92673264 92743112 92849632 92955600 92998992 93025872
979.716 93049688 93098056 93139776 93136408 93134600 93097480 93031496
993.216 92926168 92825376 92735904 92650944 92580616 92506624 92443360
1006.716 92398200 92345968 92280880 92190128 92101000 92021712 91850312
1020.216 91642032 91467320 91319088 91186768 91079936 91036432 91037816
1033.716 91074904 91090608 91167528 91251120 91323840 91301632 91191328
1047.216 91056352 90897056 90637696 90322544 90027000 89742592 89450744
1060.717 89197208 88961656 88784352 88675936 88568120 88411624 88102328
1074.217 87652256 87064864 86335152 85499688 84590184 83732192 82911184
1087.717 82065712 81207824 80430904 79844648 79535496 79462576 79609808
1101.217 79908960 80345656 80775200 81028544 80967208 80553784 79902760
1114.717 79280032 78856456 78841000 79296848 80082328 80954048 81641008
1128.217 81766656 81155592 79805904 77901272 75717072 73608008 71824368
1141.717 70555184 69777088 69291840 68794376 68252040 67691528 67156944
1155.217 66611032 66170036 65915520 65944212 66239960 66793456 67542304
1168.718 68564248 69697936 70866400 71969080 73062544 74173280 75297912
1182.218 76348816 77307216 78195728 79023184 79798656 80570736 81281496
1195.718 81970528 82631096 83210584 83689520 84100040 84382168 84581224
1209.218 84755504 84935360 85063168 85144984 85136592 85020968 84813568
1222.718 84571304 84278496 83987968 83718360 83504056 83354096 83245888
1236.218 83166080 83176960 83355328 83660072 84075992 84601976 85186480
1249.718 85790304 86293384 86634528 86850592 87033640 87227688 87419696
1263.218 87578240 87762592 87964184 88144312 88304056 88441312 88534456
1276.719 88645184 88788152 88977584 89280552 89690432 90117224 90449296
1290.219 90671800 90798624 90849232 90862312 90862480 90886272 90951744
1303.719 91054760 91196928 91325152 91383376 91404624 91405368 91405424
1317.219 91392312 91464160 91605056 91780024 92015896 92326144 92560544
1330.719 92666120 92652776 92506680 92284928 92020208 91759208 91612608
1344.219 91472896 91242248 91000720 90920624 90903200 90873288 90809272
1357.719 90701416 90564632 90481672 90410704 90385712 90306384 90175248
1371.219 89998488 89663632 89083400 88644152 88936872 89983632 91190448
1384.719 92169968 93018688 93653768 94045200 94282056 94242720 94239408
1398.220 94269992 94221016 94232960 94241800 94508256 94802408 94679520
1411.720 94130000 93289824 92552520 92202872 92373240 92868728 93259088
1425.220 93365568 93075952 92470056 91727192 91145352 90517472 89654904
1438.720 89056272 88566720 87992224 87676112 87472736 86966328 86073056
1452.220 84658440 83071672 81759576 81349344 81610832 81725064 81436344
1465.720 81457680 83053384 86711216 90718200 93707904 95330152 96390552
1479.220 97015008 97279000 97646056 98076616 98330648 98305880 98063624
1492.720 98089584 98416120 98659024 98737464 98796280 98714384 98702264
1506.221 98358528 98803312 99543072 99654768 99364104 98967816 98906152
1519.721 99176504 99227728 98956112 98787256 98713808 98883088 99241256
1533.221 99232376 99240000 99272512 98854656 98428472 98542584 98723968
1546.721 99144864 99275616 99173168 99221512 99090680 99083968 98938136
1560.221 98723472 98909688 99072328 98975424 99060784 99029056 99426648
1573.721 99672568 99129728 98957480 99165432 99139952 99139008 99221736
1587.221 99342296 99475872 99595000 99557496 99559208 99534432 99556664
1600.721 99464624 99432984 99526896 99465408 99346168 99266856 99199216
1614.222 99302000 99222768 99014072 99058736 99038352 99029080 99190592
1627.722 99305680 99247776 99090384 98811064 98651624 98605904 98667376
1641.222 98786288 98692024 98403936 97930944 98138600 98521680 97972816
1654.722 97798456 98227728 98585440 98533360 98649664 98778312 99017696
1668.222 98705984 98026536 98354736 98588520 98430120 98194328 97887560
1681.722 97602192 97429152 97454688 97968280 97943928 97398472 97169136
1695.222 96745552 96827848 96737712 95926512 95762680 95685136 95598256
1708.722 95764544 95767328 95334032 94996784 94047616 93201864 92497104
1722.223 91592472 89906864 87873672 85361136 82083168 78057496 72353584
1735.723 66141632 61413996 56705260 53437676 52307544 53188180 55719660
1749.223 59828440 64966028 70685360 75821888 80850672 85179344 88773328
1762.723 91573808 93425792 94555952 95320856 96002664 96555520 97068408
1776.223 97466632 97618328 97810800 98175104 98446000 98644648 98739552
1789.723 98875792 98921712 98973992 99239608 99322056 99314296 99218440
1803.223 99307792 99545272 99667072 99584504 99575464 99606176 99582304
1816.723 99574496 99629064 99639840 99669384 99555360 99511296 99536800
1830.224 99548184 99739512 99920040 99929928 99789008 99768656 99749960
1843.724 99768880 99802040 99898976 99896024 99785704 99813856 99835424
1857.224 99995840 100071920 99978560 99865376 99815720 99795784 99851928
1870.724 99975840 100010528 99957184 99948736 100025608 100054928 100090704
1884.224 100134408 100164816 100132072 100078024 100194552 100214616
1895.796 100202920 100050328 100013544 100036704 100053168 100192656
1907.367 100362240 100393528 100325344 100227800 100312216 100358920
1918.939 100369552 100326064 100254656 100269144 100449632 100493640
1930.510 100575192 100841400 100971560 101055408 101049472 100996736
1942.082 101072784 101347752 101622856 101547016 101380984 101263960
1953.653 101249184 101353264 101968264 102093488 101494240 101170376
1965.225 101351312 101400720 101489432 101406944 101899144 102645048
1976.796 102463864 101687624 101398264 101196816 100705128 100315648
1988.368 100653064 100924288 100852200 100648152 100645432 101082840
1999.939 101247264 100721912 100975760 101014920 101037912 101056232
2011.511 100991184 100854040 100739496 100194992 99913680 100174952
2023.082 100561224 100912408 100969360 100160112 99443320 99499664 99360912
2036.583 98934832 98981712 99213704 99165136 98847320 98436032 98357384
2050.083 98644432 98819528 98892824 98828280 98776424 98768048 99013736
2063.582 99080744 99027800 99246720 99146032 99093264 99364208 99330016
2077.081 99449400 99392128 99279024 99404736 99550512 99510040 99437944
2090.580 99540664 99645952 99686296 99660912 99725432 99992080 100092064
2104.080 100053280 100021192 100036848 100187504 100433496 100548816
2115.650 100604248 100737024 100938368 100941208 101209576 101525048
2127.221 101459544 101404784 101419600 101566256 101975776 102269448
2138.792 102412960 102757608 103062264 103503464 103724848 103840928
2150.363 103929472 104006424 103772648 104309976 105958520 105087952
2161.934 103200256 102684064 102561968 101954560 101719712 101633368
2173.504 101380088 100914472 100473472 100721240 100649240 100057432
2185.075 99823696 100123424 100758064 100692768 100851584 101277648
2196.646 101583416 101344424 100966240 100653696 100833248 100965368
2208.217 100986880 101040792 100602784 100306872 100475224 100319552
2219.788 100352160 100545328 100486824 100504240 100552240 100380120
2231.358 100468632 100574008 100513136 100356592 100156232 99971952 99968872
2244.858 100035736 99938944 99862688 99746376 99496896 99400400 99401408
2258.357 99349472 99304264 99196144 98984544 98894240 98959888 99012344
2271.856 99029696 99017048 99077000 99099512 99052944 99009952 99052304
2285.355 99069264 99031528 99073056 98989768 98877664 98792464 98774112
2298.855 98685280 98598440 98541608 98491064 98533504 98588576 98544392
2312.354 98393888 98149992 97947880 97822720 97805768 97715256 97557480
2325.853 97515528 97504128 97630016 97986616 98356696 98210944 97664528
2339.353 97180664 97125416 97397472 97759936 98260736 98422792 97919976
2352.852 97286664 97069776 97099880 96952248 96581464 96243368 96325136
2366.351 96730896 97252288 97771160 98069976 98297704 98628568 99043792
2379.850 99336472 99487304 99509984 99546280 99614448 99691120 99698136
2393.350 99640888 99680456 99825512 99970920 100037704 100052936 100155552
2406.849 100247064 100267968 100259528 100283008 100277568 100248480
2418.420 100242568 100236688 100158928 100108040 100108232 100100040
2429.990 99991544 99944584 99934888 99838528 99780480 99860136 99803344
2443.490 99639336 99643712 99677512 99686768 99693096 99698816 99768568
2456.989 99767976 99719976 99724624 99723504 99710584 99748456 99793368
2470.488 99870504 99906296 99912696 99924392 99943632 99947152 99898080
2483.988 99863224 99892680 99905816 99921688 99950040 99945240 99895264
2497.487 99948704 99967616 99934784 99909616 99968296 99983504 99948080
2510.986 99961936 99968896 99913488 99868584 99883808 99923200 99970912
2524.485 99978840 99942280 99924160 100000024 100073384 100015464 99941648
2537.985 99934480 99985040 100020752 100005656 100018920 100014152 99930784
2551.484 99956032 99989472 100034728 99952544 99903848 99912608 99868120
2564.983 99822912 99789784 99700024 99676584 99691040 99614992 99495432
2578.482 99489656 99498232 99443496 99305344 99277264 99336184 99300936
2591.982 99245144 99266720 99218776 99130264 99115208 99113696 99085744
2605.481 99091160 99066944 98985816 98886696 98804432 98747984 98755072
2618.980 98746408 98704760 98667392 98648472 98613680 98563536 98506896
2632.479 98519040 98554256 98526136 98532984 98585216 98630016 98656864
2645.979 98637064 98666608 98704296 98716064 98719448 98748824 98775552
2659.478 98828928 98857120 98837448 98830184 98898672 98965472 98966328
2672.977 98976296 99012928 99034896 99071464 99096584 99120112 99174864
2686.477 99225544 99242176 99283040 99311192 99349248 99345624 99328512
2699.976 99325200 99331688 99334016 99346288 99329616 99316960 99291080
2713.475 99251808 99239144 99249136 99239776 99232048 99219400 99213600
2726.974 99199176 99169216 99138304 99143968 99188520 99214608 99216008
2740.474 99207136 99227400 99241920 99207504 99182128 99165328 99141936
2753.973 99137320 99157832 99123152 99105808 99101336 99085048 99041072
2767.472 99017936 99016672 99001944 98953584 98859440 98789992 98757992
2780.971 98695096 98612072 98512776 98442800 98346544 98241392 98161096
2794.471 98099776 98018992 97903768 97814400 97705392 97568632 97443072
2807.970 97299424 97180368 97045392 96867248 96684992 96474392 96204888
2821.469 95924096 95560552 95119048 94567880 93924056 93149936 92274040
2834.969 91223056 89922168 88168920 85752584 82433928 78246920 73593456
2848.468 69263184 66015036 64601312 65366624 67907184 71338344 74941104
2861.967 78207760 80803088 82519320 83427744 83809592 84228616 84962272
2875.466 85911088 86629880 86973864 86939464 86591560 86055944 85292024
2888.966 84331456 83277536 82125248 80917816 79652480 78321936 76877920
2902.465 75346064 73705888 71913352 69830784 67449240 64770300 61885172
2915.964 59012180 56561028 54854348 54283392 54882336 56436228 58649752
2929.463 61282164 64118584 67137104 70134352 72966080 75494600 77666792
2942.963 79430816 80822128 81683520 82035016 82070912 82011048 82142792
2956.462 82603896 83418944 84580968 85932600 87424008 88976264 90458904
2969.961 91770984 92928280 93859272 94633936 95266496 95750600 96144472
2983.460 96480920 96719152 96851440 96864280 96854192 96820352 96661968
2996.960 96380120 95987568 95537848 95140920 94916672 94867312 94973496
3010.459 95249424 95663256 96228800 96860896 97386608 97769896 98119912
3023.958 98470608 98733072 98901576 98974432 99045248 99121336 99150944
3037.458 99179816 99222632 99299584 99328312 99360512 99426360 99500304
3050.957 99564576 99577952 99550312 99575512 99629200 99658864 99625728
3064.456 99588400 99576848 99595848 99636032 99690056 99741320 99748392
3077.955 99692936 99674840 99719032 99730424 99718704 99751128 99792632
3091.455 99823504 99800208 99743944 99758888 99789984 99810448 99839768
3104.954 99855056 99801160 99793144 99819920 99841048 99866976 99830296
3118.453 99798512 99802768 99851496 99841424 99853040 99878144 99908480
3131.952 99889904 99870288 99923600 99940472 99901136 99926360 99960272
3145.452 99951816 99947208 99946808 99905200 99924576 99972928 99993576
3158.951 99910664 99898488 99968648 100013880 100007712 100022376 100032216
3172.450 100066984 100041248 99995632 99963832 99981488 99952440 99967528
3185.949 99969784 99984240 100028216 100046360 100024416 99968448 99994344
3199.449 100063992 100044264 100031128 100024056 100016536 99993224 99972176
3212.948 99954872 99929264 99902080 99909704 99963008 100035920 100014920
3226.447 99945296 99988872 100044840 99984584 99976640 99970608 99935776
3239.947 99936776 99969568 100005888 100015328 100032040 100054992 99988344
3253.446 99957704 99928272 99960648 99998544 99965280 99995712 100021536
3266.945 99965032 99902632 99912384 99946176 99884368 99899504 99943632
3280.444 99957400 99983752 99990848 100018680 100016424 99912824 99868832
3293.944 99923224 99931736 99889032 99921688 99958976 99914544 99903448
3307.443 99978672 100061648 100014744 99993472 99988760 99978456 99985376
3320.942 99989112 100047352 100044976 100002120 99994752 100022312 100022864
3334.441 100058072 100033024 99961544 99976064 100022504 100022912 100058032
3347.941 100047624 100052976 100064672 100031064 99986992 100014816
3359.511 100082872 100058712 99988784 99980720 99990264 99969168 99982376
3373.011 100011888 99979560 99920592 99893832 99911808 99977112 100019920
3386.510 100017288 100029352 99988648 99987360 100059008 100115848 100046904
3400.009 100011104 100024752 100036640 100071160 100126440 100072568
3411.580 100070208 100098288 100133728 100100048 100070064 100043928
3423.151 100062904 100098248 100093096 100056456 100035944 100016248
3434.722 100050808 100045192 100044312 99996456 99998656 100032856 99964128
3448.221 99890208 99927344 99950096 99949848 99920616 99906608 99923592
3461.720 99867912 99812064 99761840 99692096 99711048 99821208 99807048
3475.219 99759472 99791536 99832560 99913016 99889208 99849992 99845680
3488.719 99860456 99877560 99857608 99872504 99927456 99929528 99955336
3502.218 99909632 99876560 99887624 99869352 99782352 99823392 99943608
3515.717 100023696 100025464 100066632 100057112 99934168 99819616 99855464
3529.217 99957120 99965080 99986112 100087544 100057280 100020616 100064336
3542.716 100124336 100126432 100031496 99973072 99924104 99808024 99996584
3556.215 100267832 100342200 100194912 100047576 100125056 100126920
3567.786 99956280 99985864 100009704 99906208 99990784 100231128 100411032
3581.285 100374416 100170880 100112512 100049656 100047208 100160528
3592.856 99957712 99749464 99910224 100202072 100424808 100357208 100183632
3606.355 100166808 100170992 100152248 99865208 99389904 99650880 100102352
3619.854 100270464 100327064 100164288 100111496 99928608 99708224 99915136
3633.354 99874928 99502472 99613624 100047072 100108456 100379224 100275184
3646.853 100212392 100011648 99757288 99884024 99681336 99279568 99618272
3660.352 99968496 100475800 100782632 100804672 100459632 99720688 99275520
3673.852 99260624 99452144 99818448 100277032 100103360 99848072 99792056
3687.351 99951744 100572544 100348832 99919656 99218688 98841392 99446688
3700.850 100254544 100514312 100179520 99810480 99557888 99853840 100220776
3714.349 100627880 100214984 99594408 99553096 100111960 100833488 100828256
3727.849 100169712 99190208 99148392 99255392 99727744 99792592 99724960
3741.348 99787400 99165152 99120984 99933040 100326744 99476616 98920208
3754.847 99139888 99550176 99669960 99297536 99734368 99556928 99370568
3768.346 99406736 99649984 99676952 99591976 99601824 99759624 99816688
3781.846 99910632 100252512 99813264 99611368 100087184 100128936 100407504
3795.345 100454200 100338384 100341464 99530832 99596432 100097872 99991680
3808.844 100131120 100344720 100388928 100285784 99970760 100136160
3820.415 100297000 99493448 99455592 99854536 100175352 100645528 100491608
3833.914 100240136 99767344 98761024 99161024 100290528 100672512 100352136
3847.414 99851680 99577104 99770064 100058192 100012432 100370408 100002864
3860.913 99402240 99363912 99702376 100522936 100592056 99714912 99668128
3874.412 99693256 99646600 99893416 99807000 99847640 99869544 99280088
3887.911 99550608 99759640 99864808 100130208 100225408 99894184 99727512
3901.411 99624872 99889912 100087720 99928320 99748328 99721936 99967632
3914.910 100131696 100167288 100121080 99996056 99825544 99728408 99747168
3928.409 99781176 99987000 100016216 99979912 100005192 100010040 99994432
3941.908 100047088 100106680 100145736 100087560 100032464 100088792
3953.479 100024456 99998184 100057544 100103736 100154768 100178288
3965.050 100137504 100078272 100069616 100096072 100104992 100132712
3976.621 100135296 100146800 100087440 100043504 100075744 100117744
3988.192 100102344 100058920 100038256 100067752 100044456 100078136
3999.762 100083936
##END=
